freq real imag
0.0 5.26380288265164 3.232050807568878
0.336168084042021 5.3802678846748435 3.0392992052762744
0.672336168084042 5.474614671725576 2.8375302332135712
1.008504252126063 5.54619102641244 2.6293559195829928
1.344672336168084 5.594623959447888 2.4174283107520274
1.680840420210105 5.619821390056252 2.204411468733362
2.017008504252126 5.621971121661175 1.9929535077514053
2.3531765882941467 5.601537134963737 1.7856589251976436
2.689344672336168 5.559253244262276 1.585061478488208
3.025512756378189 5.496114186090748 1.393597853363698
3.36168084042021 5.413364231765503 1.213582361076161
3.6978489244622312 5.312483437038133 1.0471828917720656
4.034017008504252 5.195171662571006 0.8963983393009647
4.370185092546272 5.063330518209836 0.763037698771911
4.706353176588293 4.919043401861938 0.6487010225731378
5.0425212606303145 4.764553820052863 0.5547624034088092
5.378689344672336 4.60224219179306 0.48235513434631616
5.714857428714356 4.43460135012279 0.4323591760763573
6.051025512756378 4.264210966515381 0.4053910407436867
6.387193596798398 4.093711132121643 0.4017961799945985
6.72336168084042 3.9257753365651924 0.42164394250029624
7.05952976488244 3.763083089600814 0.46472514335089754
7.3956978489244625 3.608292433396623 0.5305522645725624
7.731865932966483 3.4640125934838073 0.618362282802658
8.068034017008504 3.3327770145439786 0.7271220970655424
8.404202101050524 3.2170170231990483 0.8555365068241411
8.740370185092544 3.119036353877695 1.00205866823503
9.076538269134566 3.040986765717549 1.1649029349970637
9.412706353176587 2.984844968403751 1.3420599695383602
9.748874437218609 2.952391062937741 1.5313139907076219
10.085042521260629 2.945188689687071 1.7302620057870501
10.421210605302651 2.964567060813344 1.9363348576778472
10.757378689344671 3.011605037450144 2.146819902665117
11.093546773386691 3.0871173939570813 2.3588851203723475
11.429714857428712 3.1916433923714496 2.5696044454774505
11.765882941470736 3.325437769986189 2.775984100577651
12.102051025512756 3.4884642219797635 2.974989701337354
12.438219109554776 3.6803914393950308 3.1635738987937785
12.774387193596796 3.900591740698176 3.3387043194723964
13.11055527763882 4.148142312836782 3.4973915618053675
13.44672336168084 4.4218290553504715 3.6367170072583317
13.78289144572286 4.7201529988598425 3.7538602065456015
14.11905952976488 5.0413392473586836 3.8461256053226034
14.455227613806901 5.383348372346623 3.9109683797437187
14.791395697848925 5.743890166143756 3.9460191602014603
15.127563781890945 6.120439641898806 3.9491074313417984
15.463731865932965 6.510255149001963 3.9182834079875732
15.799899949974986 6.910398454997566 3.8518381997894213
16.136068034017008 7.317756628803811 3.748322092141092
16.47223611805903 7.729065545217468 3.606560787009501
16.80840420210105 8.140934817429645 3.425669464695532
17.14457228614307 8.549873952707221 3.205064546004758
17.48074037018509 8.952319516592365 2.9444730537056136
17.816908454227114 9.344663083012776 2.6439394923164983
18.153076538269133 9.72327974163418 2.3038301860177928
18.489244622311155 10.084556929664881 1.9248350356510011
18.825412706353173 10.424923353162614 1.507966677164319
19.161580790395195 10.740877762703168 1.0545570453094744
19.497748874437217 11.029017350038421 0.5662513677081238
19.83391695847924 11.286065536070074 0.04499963540884224
20.170085042521258 11.508898926053128 -0.5069543834278023
20.50625312656328 11.694573215359409 -1.0870865002161032
20.842421210605302 11.840347838302884 -1.6926077274600462
21.178589294647324 11.943709163366314 -2.320482041479264
21.514757378689342 12.00239205057098 -2.9674461457736436
21.850925462731364 12.014399600583266 -3.630031078749479
22.187093546773383 11.97802094032763 -4.304585495199528
22.523261630815405 11.891846906238984 -4.9873004380825385
22.859429714857423 11.754783503693249 -5.67423540588212
23.19559779889945 11.566063039449908 -6.361345511221625
23.53176588294147 11.32525284296588 -7.044509518539905
23.86793396698349 11.03226151203127 -7.7195585425439415
24.20410205102551 10.687342638167815 -8.382305184885345
24.540270135067534 10.291095987449694 -9.028572884080786
24.876438219109552 9.844466132684813 -9.654225253115303
25.212606303151574 9.348738553063109 -10.255195180423515
25.548774387193593 8.805533237270426 -10.827513473010029
25.884942471235615 8.216795845519773 -11.367336825306674
26.22111055527764 7.584786504808127 -11.870974903915235
26.55727863931966 6.912066329816216 -12.334916346579954
26.89344672336168 6.20148177908672 -12.755853483492793
27.2296148074037 5.456146972309895 -13.130705600259844
27.56578289144572 4.679424109589002 -13.456640574444283
27.901950975487743 3.874902147339027 -13.731094731431279
28.23811905952976 3.0463738978883734 -13.951790780308771
28.574287143571784 2.1978117308159826 -14.116753706388824
28.910455227613802 1.3333420634897988 -14.224324513767025
29.246623311655828 0.45721883611384895 -14.273171728785226
29.58279139569785 -0.42620382720626493 -14.262300593273286
29.91895947973987 -1.3124995653414375 -14.191059894845688
30.25512756378189 -2.197198126085633 -14.059146400161936
30.59129564782391 -3.075813901157683 -13.866606875769875
30.92746373186593 -3.943874440792565 -13.613837699783588
31.26363181590795 -4.796948740668564 -13.301582086049388
31.59979989994997 -5.630675097754384 -12.930924960476473
31.935967983991993 -6.440788337072855 -12.50328554670841
32.272136068034015 -7.223146218301581 -12.020407735150771
32.60830415207604 -7.9737548394908515 -11.484348325418221
32.94447223611806 -8.68879286488674 -10.897463247398779
33.28064032016008 -9.364634414807794 -10.262391880241724
33.6168084042021 -9.997870467627777 -9.58203960155536
33.95297648824412 -10.585328637052767 -8.859558710859588
34.28914457228614 -11.124091201923354 -8.098327881796642
34.62531265632816 -11.611511280596178 -7.301930306692277
34.96148074037018 -12.045227057428797 -6.474130704723812
35.2976488244122 -12.423173984872573 -5.618851371148212
35.63381690845423 -12.743594901029205 -4.740147449742948
35.969984992496244 -13.005048019109692 -3.8421816137976306
36.306153076538266 -13.206412761906934 -2.9291983426629185
36.64232116058029 -13.346893431018279 -2.005497981023496
36.97848924462231 -13.426020716994499 -1.075410766736897
37.31465732866433 -13.443651072713665 -0.14327101030300637
37.65082541270635 -13.399963987955527 0.7866083951513467
37.98699349674837 -13.295457218260008 1.7099609600170917
38.32316158079039 -13.130940035578622 2.6225909139280477
38.65932966483241 -12.90752458186062 3.5203966925257055
38.995497748874435 -12.626615419458082 4.39939344584378
39.33166583291646 -12.28989738399512 5.255734429033115
39.66783391695848 -11.899321856046669 6.085731147202054
40.0040020010005 -11.457091577540854 6.88587213801097
40.340170085042516 -10.965644147178455 7.65284028821533
40.67633816908454 -10.427634336304562 8.383528593484318
41.01250625312656 -9.845915372536211 9.07505428440881
41.34867433716858 -9.223519343020573 9.72477125553299
41.684842421210604 -8.56363687245866 10.330280748373264
42.02101050525262 -7.86959623297872 10.889440253604889
42.35717858929465 -7.144842043590946 11.400370611779197
42.69334667333666 -6.392913716324065 11.861461305963232
43.029514757378685 -5.61742380426395 12.271373953456187
43.365682841420714 -4.822036403631716 12.629044017118632
43.70185092546273 -4.010445757800312 12.933680769751502
44.03801900950475 -3.186355205821491 13.184765557278086
44.374187093546766 -2.3534566116847024 13.382048418125981
44.710355177588795 -1.5154104032346059 13.525543127091765
45.04652326163081 -0.6758263415203447 13.615520742022802
45.38269134567283 0.16175486757649626 13.652501740803748
45.71885942971485 0.993879017187542 13.6372468443303
46.055027513756876 1.8171948067073436 13.570746628344024
46.3911955977989 2.6284691310275803 13.45421003315138
46.72736368184091 3.4246011813596873 13.289051885329808
47.06353176588294 4.202635298535957 13.07687954951782
47.39969984992496 4.959772531127548 12.819478831286059
47.73586793396698 5.693380862222096 12.518799253896763
48.072036018009 6.401004080160066 12.176938832491743
48.40820410205102 7.080369279842321 11.796128468926597
48.74437218609304 7.7293929922897275 11.378716089123486
49.08054027013507 8.346185950873478 10.927150642485035
49.41670835417709 8.92905651295042 10.443966079647796
49.752876438219104 9.476512765455338 9.93176542070915
50.08904452226113 9.987263352244184 9.393205021100188
50.42521260630315 10.460217069584195 8.83097913656718
50.76138069034517 10.894481284089746 8.247804882338805
51.097548774387185 11.289359234553004 7.646407674575164
51.433716858429214 11.644346285477084 7.029507234697919
51.76988494247123 11.959125205648105 6.399804229275457
52.10605302651325 12.233560549759574 5.7599676098672
52.44222111055528 12.467692224908182 5.112622708706829
52.778389194597295 12.6617283267084 4.460340137412231
53.11455727863932 12.81603733182384 3.805625527137161
53.45072536268133 12.931139734895822 3.1509101398132953
53.78689344672336 13.00769921818111 2.498542371453025
54.123061530765376 13.04651344171644 1.8507801599751001
54.4592296148074 13.048504540540447 1.2097843017519767
54.79539769884941 13.014709413462137 0.5776126731338804
55.13156578289144 12.946269885117129 -0.04378465435648349
55.467733866933465 12.844422819648077 -0.6525694235766568
55.80390195097549 12.71049026034263 -1.2470183510963069
56.14007003501751 12.545869665021613 -1.8255254674002441
56.47623811905952 12.352024301956972 -2.3866036745260866
56.812406203101546 12.130473865682385 -2.928885562542381
57.14857428714357 11.882785366308712 -3.4511235304639887
57.48474237118559 11.610564339944537 -3.952189260718046
57.820910455227605 11.315446421621873 -4.431072599104964
58.157078539269634 10.999089315809643 -4.886879894341262
58.493246623311656 10.663165193237987 -5.318831852724514
58.82941470735367 10.309353536420986 -5.726260964238716
59.1655827913957 9.939334450026882 -6.1086085565348585
59.501750875437715 9.554782446164491 -6.465421532702034
59.83791895947974 9.157360708796983 -6.796348847618008
60.17408704352175 8.748715835916052 -7.10113777597049
60.51025512756378 8.33047305286346 -7.379630022812657
60.846423211605796 7.904231885323061 -7.631757724803627
61.18259129564782 7.471562276063693 -7.857539387138018
61.51875937968985 7.034001125533067 -8.057075797639992
61.85492746373186 6.593049232910619 -8.230545955644152
62.191095547773884 6.150168611251782 -8.378203049165979
62.5272636318159 5.706780147912145 -8.500370509538861
62.86343171585793 5.264261579539277 -8.59743816822397
63.19959979989994 4.823945749568773 -8.669858535944465
63.535767883941965 4.387119115354603 -8.718143219717607
63.87193596798399 3.9550204717967765 -8.74285948881712
64.20810405202602 3.528839858584573 -8.744626996250778
64.54427213606803 3.1097176189338818 -8.724114658040655
64.88044022011005 2.6987435789325573 -8.682037688498198
65.21660830415207 2.296956318292176 -8.619154785841472
65.55277638819409 1.9053425053969668 -8.536265458953276
65.88894447223612 1.5248362720055972 -8.434207482866471
66.22511255627813 1.1563186057518706 -8.31385446772175
66.56128064032016 0.8006167416605595 -8.176113523504762
66.89744872436218 0.4585035371948485 -8.021923000857674
67.2336168084042 0.13069681882958728 -7.852250286694871
67.56978489244621 -0.18214130825149022 -7.668089632246693
67.90595297648824 -0.4794051920632859 -7.470459990516537
68.24212106053027 -0.7605464083680984 -7.260402839966428
68.57828914457228 -1.02507457524829 -7.038979971540586
68.91445722861431 -1.2725582015194947 -6.80727121688518
69.25062531265633 -1.5026255593756888 -6.566372096809599
69.58679339669834 -1.7149655684205296 -6.317391370639315
69.92296148074036 -1.9093286752360823 -6.061448469106893
70.25912956478238 -2.085527709914924 -5.799670795784491
70.5952976488244 -2.243438698570298 -5.53319088474396
70.93146573286643 -2.3830016087792254 -5.263143405099476
71.26763381690846 -2.504221003232591 -4.990662006301208
71.60380190095047 -2.607166575591156 -4.71687600146003
71.93996998499249 -2.691973541695817 -4.442906889546636
72.27613806903452 -2.7588428588696816 -4.169864720973041
72.61230615307653 -2.8080412460875976 -3.8988443147795326
72.94847423711855 -2.839900978278209 -3.630921339365777
73.28464232116058 -2.854819428964122 -3.3671482723675674
73.62081040520259 -2.853258336827802 -3.1085502588416984
73.95697848924462 -2.8357427736023375 -2.856120890329562
74.29314657328665 -2.8028597929083636 -2.61081793057904
74.62931465732866 -2.755256742267973 -2.373559016666088
74.96548274137068 -2.6936392234943805 -2.145217366931929
75.3016508254127 -2.6187686899503064 -1.9266175294974348
75.63781890945472 -2.5314596727509944 -1.7185312070976568
75.97398699349674 -2.4325766318191056 -1.5216731955658127
76.31015507753877 -2.323030431734266 -1.336697474458926
76.64632316158078 -2.203774446513413 -1.164193489035006
76.98249124562281 -2.0758003017599926 -1.004682663046832
77.31865932966483 -1.9401332669803595 -0.8586151815981435
77.65482741370684 -1.79782731523232 -0.7263670826074864
77.99099549774887 -1.6499598715916801 -0.6082376942423635
78.32716358179088 -1.497626276145577 -0.5044474540265618
78.66333166583291 -1.341933991294775 -0.4151361431957967
78.99949974987493 -1.1839965870203724 -0.34036156729769074
79.33566783391696 -1.0249275413954406 -0.28009871102166306
79.67183591795897 -0.8658338969520087 -0.2342393918291099
80.008004002001 -0.7078098165054252 -0.2025924331642439
80.34417208604302 -0.5519300846512063 -0.18488437389742818
80.68034017008503 -0.39924360334785997 -0.18076072622440553
81.01650825412706 -0.2507669317499862 -0.18978778956001885
81.35267633816908 -0.10747792173239312 -0.21145502307027475
81.6888444222111 0.029690498675329358 -0.24517797443127065
82.02501250625312 0.1598563414605093 -0.2903017572391029
82.36118059029515 0.28219432218613877 -0.34610506427458554
82.69734867433716 0.3959413195144254 -0.4118046986056457
83.03351675837918 0.5004014806061596 -0.48656059934284124
83.36968484242121 0.5949509241691013 -0.5694813338055242
83.70585292646322 0.6790419953118236 -0.6596300229622999
84.04202101050524 0.7522070292455884 -0.7560306623329313
84.37818909454728 0.8140615842460642 -0.8576747961314323
84.7143571785893 0.8643071081111127 -0.9635284983423202
85.05052526263131 0.902733006599189 -1.072539610699129
85.38669334667333 0.9292180869684137 -1.1836451842213185
85.72286143071535 0.9437313547181148 -1.2957790681013952
86.05902951475737 0.9463321469175232 -1.4078795873543688
86.39519759879938 0.9371695910418809 -1.5188972487774925
86.73136568284143 0.9164813839729241 -1.6278024134452418
87.06753376688344 0.8845918917038933 -1.7335928732038686
87.40370185092546 0.8419095762635231 -1.8353012684462158
87.73986993496747 0.7889237623797583 -1.9320022848511813
88.0760380190095 0.7262007623851671 -2.0228195677655796
88.41220610305152 0.6543793837620172 -2.1069322944886273
88.74837418709353 0.5741658494774626 -2.183581346881186
89.08454227113555 0.4863281668110286 -2.2520750294500624
89.42071035517759 0.39168998567022 -2.3117942813321277
89.7568784392196 0.2911239923725527 -2.3621973343979015
90.09304652326162 0.18554488949066214 -2.402823773979634
90.42921460730365 0.07590201656482216 -2.4332979634674903
90.76538269134566 -0.03682832976329169 -2.4533317991700185
91.10155077538768 -0.15165081438830338 -2.462726767355324
91.4377188594297 -0.26755915662386354 -2.4613752812284995
91.77388694347174 -0.383544330649319 -2.449261281706499
92.11005502751375 -0.4986028052752596 -2.4264600921677495
92.44622311155577 -0.6117447538300855 -2.393137523822264
92.7823911955978 -0.7220021646422834 -2.349548234908716
93.11855927963981 -0.8284367828999191 -2.296033353516776
93.45472736368183 -0.9301478156129113 -2.2330173803931332
93.79089544772384 -1.0262793329793116 -2.1610043945563846
94.12706353176588 -1.116027301657441 -2.0805735908570004
94.4632316158079 -1.1986461882520665 -1.9923741847135052
94.79939969984991 -1.2734550747156634 -1.8971197250754075
95.13556778389193 -1.3398432313154833 -1.795581862150704
95.47173586793396 -1.3972750972922618 -1.6885836215371157
95.80790395197599 -1.445294624297028 -1.5769922410603154
96.144072036018 -1.4835289430958543 -1.4617116308038098
96.48024012006003 -1.5116913198314075 -1.343674520469983
96.81640820410205 -1.529583374271331 -1.2238343613041105
97.15257628814406 -1.5370965389030617 -1.1031570523090197
97.48874437218608 -1.5342127443930054 -0.9826125623521589
97.8249124562281 -1.5210043237546476 -0.8631665209966557
98.16108054027013 -1.4976331345020364 -0.7457718514596744
98.49724862431215 -1.4643489050380372 -0.6313605190054743
98.83341670835418 -1.4214868184760339 -0.5208354673146156
99.1695847923962 -1.3694643539538325 -0.41506281393912536
99.50575287643821 -1.308777412205885 -0.31486437386518695
99.84192096048022 -1.2399957586504329 -0.22101057747808361
100.17808904452227 -1.1637578234607566 -0.13421384587972174
100.51425712856428 -1.0807649039654248 -0.05512248257685837
100.8504252126063 -0.9917748202047147 0.015684863928643322
101.18659329664831 -0.8975950795069833 0.0777041171168047
101.52276138069034 -0.799075610490889 0.1305100249341795
101.85892946473236 -0.6971011309030538 0.17375970961776943
102.19509754877437 -0.5925832171263201 0.2071954829488708
102.53126563281641 -0.48645214600876785 0.2306469015958893
102.86743371685843 -0.3796485818375398 0.24403204402467238
103.20360180090044 -0.2731151827946474 0.24735799746095888
103.53976988494246 -0.16778820206672895 0.24072055051865482
103.87593796898449 -0.06458915892722272 0.22430309429352868
104.2121060530265 0.03558334543383679 0.1983747418976135
104.54827413706852 0.1318615937895189 0.16328768350851408
104.88444222111056 0.22341642883096668 0.11947380096388516
105.22061030515258 0.30946457013541073 0.06744057267870829
105.55677838919459 0.38927550629500274 0.007766306139512735
105.8929464732366 0.4621779001756967 -0.058905258626408
106.22911455727863 0.5275654496730219 -0.13187092545518853
106.56528264132065 0.5849021512661151 -0.21037454386293958
106.90145072536266 0.6337269190970939 -0.2936139769993818
107.23761880940468 0.673657518170725 -0.3807484721888992
107.57378689344672 0.704393776525637 -0.4709063668170095
107.90995497748874 0.7257200478140877 -0.563193059243289
108.24612306153075 0.7375069025832979 -0.6566991719917974
108.58229114557278 0.739712033613095 -0.7505088327087277
108.9184592296148 0.7323803678662842 -0.843707997303062
109.25462731365681 0.7156433848840354 -0.9353927393094231
109.59079539769883 0.6897176487392975 -1.0246774298374062
109.92696348174087 0.6549025678804792 -1.1107027334967572
110.26313156578288 0.6115774042866008 -1.1926433474029117
110.5992996498249 0.5601975602486726 -1.2697154127583898
110.93546773386693 0.5012901777252645 -1.3411835315494454
111.27163581790894 0.4354490915305059 -1.406367324566965
111.60780390195097 0.3633291835423337 -1.464647471222191
111.94397198599299 0.2856401906104024 -1.5154711764407542
112.28014007003502 0.20314002384680327 -1.5583570152401012
112.61630815407703 0.11662766145028008 -1.5928991113737374
112.95247623811905 0.02693568110510955 -1.618770612609392
113.28864432216106 -0.06507749872783752 -1.6357264317377453
113.62481240620309 -0.15853559667913364 -1.643605229223513
113.96098049024512 -0.25255259158696286 -1.642330620448278
114.29714857428714 -0.34624091567683424 -1.6319115976874083
114.63331665832916 -0.4387196420458327 -1.6124421642457656
114.96948474237118 -0.5291225908239884 -1.5841001854799726
115.3056528264132 -0.6166062792205361 -1.547145468689783
115.64182091045521 -0.7003576421944051 -1.50191709100147
115.97798899449725 -0.77960145270135 -1.448830001322594
116.31415707853927 -0.8536073733443947 -1.3883709291582307
116.65032516258128 -0.9216965747620345 -1.321093639477261
116.98649324662331 -0.9832478601970119 -1.2476135788471439
117.32266133066533 -1.0377032403595252 -1.1686019636582243
117.65882941470734 -1.0845729078865458 -1.0847793663815906
117.99499749874936 -1.123439566357451 -0.9969088604025145
118.3311655827914 -1.1539620748986295 -0.9057887879974624
