freq real imag
0.0 2.860478746963952e-14 2.860478746963952e-14
0.028014007003501748 3.081168403358799e-14 2.6182243051979568e-14
0.056028014007003496 3.2783153462047034e-14 2.3565849711886266e-14
0.08404202101050524 3.450162199383679e-14 2.077922128628035e-14
0.11205602801400699 3.595188665866739e-14 1.784756480400072e-14
0.14007003501750875 3.7121258409412926e-14 1.4797443862348344e-14
0.1680840420210105 3.7999681784210743e-14 1.1656529292216197e-14
0.19609804902451222 3.857982998360866e-14 8.45333942796766e-15
0.22411205602801398 3.885717447567423e-14 5.216972394643865e-15
0.25212606303151575 3.883002847787739e-14 1.9768328991790736e-15
0.2801400700350175 3.849956390647725e-14 -1.237643936600121e-15
0.30815407703851927 3.786980162984783e-14 -4.3972691357942645e-15
0.336168084042021 3.6947575109392867e-14 -7.473374249777777e-15
0.36418209104552274 3.574246775813828e-14 -1.043808101565011e-14
0.39219609804902444 3.4266724590475715e-14 -1.3264563781813077e-14
0.4202101050525262 3.2535138974607265e-14 -1.5927302262313238e-14
0.44822411205602797 3.0564915529813054e-14 -1.8402322269758624e-14
0.4762381190595297 2.8375510431593553e-14 -2.0667422187515133e-14
0.5042521260630315 2.59884505969905e-14 -2.2702383073482242e-14
0.5322661330665333 2.3427133418026866e-14 -2.448916043881889e-14
0.560280140070035 2.071660889142298e-14 -2.601205591414011e-14
0.5882941470735367 1.788334615587907e-14 -2.7257867201364935e-14
0.6163081540770385 1.4954986592757894e-14 -2.8216014909848174e-14
0.6443221610805402 1.1960085770623997e-14 -2.8878645088816016e-14
0.672336168084042 8.927846617649935e-15 -2.924070649247379e-14
0.7003501750875437 5.887846287431903e-15 -2.930000184738763e-14
0.7283641820910455 2.869759242521569e-15 -2.905721263170226e-14
0.7563781890945472 -9.692088456371322e-17 -2.851589712022742e-14
0.7843921960980489 -2.9831580812592e-15 -2.7682461696143644e-14
0.8124062031015508 -5.7606468361085515e-15 -2.6566105676766486e-14
0.8404202101050524 -8.402078586979597e-15 -2.5178740145187075e-14
0.8684342171085543 -1.0881399270954128e-14 -2.3534881519421178e-14
0.8964482241120559 -1.3174055592023549e-14 -2.1651520823733965e-14
0.9244622311155577 -1.5257227726207458e-14 -1.9547969850917086e-14
0.9524762381190593 -1.711004630819807e-14 -1.724568561741006e-14
0.9804902451225612 -1.8713791687966058e-14 -1.476807471331886e-14
1.008504252126063 -2.005207360859984e-14 -1.2140279334748054e-14
1.0365182591295647 -2.1110989636482586e-14 -9.388946954724592e-15
1.0645322661330665 -2.187926087006882e-14 -6.5419857398023284e-15
1.0925462731365683 -2.2348343662202126e-14 -3.628307950812712e-15
1.12056028014007 -2.2512516311181865e-14 -6.775636769668878e-16
1.1485742871435718 -2.2368939905605048e-14 2.2801326583915084e-15
1.1765882941470733 -2.191769274525366e-14 5.214480515445638e-15
1.204602301150575 -2.1161778002777737e-14 8.095273630461034e-15
1.232616308154077 -2.0107104536401178e-14 1.0892680014585361e-14
1.2606303151575786 -1.876244101008621e-14 1.3577518993723926e-14
1.2886443221610804 -1.7139343722265534e-14 1.6121532751371894e-14
1.3166583291645821 -1.5252058785133566e-14 1.849764988663974e-14
1.344672336168084 -1.3117399531364836e-14 2.0680238572884795e-14
1.3726863431715857 -1.075460025183917e-14 2.264534699767244e-14
1.4007003501750874 -8.185147584417573e-15 2.4370928881337048e-14
1.4287143571785892 -5.432591078045863e-15 2.583705200810826e-14
1.456728364182091 -2.522334646593611e-15 2.7026087859333716e-14
1.4847423711855927 5.185891988718521e-16 2.7922880611320597e-14
1.5127563781890945 3.661760293816057e-15 2.8514893949124214e-14
1.5407703851925962 6.8776247564086396e-15 2.879233435048251e-14
1.5687843921960978 1.0135759614672614e-14 2.874824970914667e-14
1.5967983991995995 1.3405145726430562e-14 2.837860239210685e-14
1.6248124062031015 1.6654446519181154e-14 2.7682316058565044e-14
1.6528264132066033 1.9852290025063386e-14 2.666129580782006e-14
1.6808404202101048 2.296755165724467e-14 2.5320421466286643e-14
1.7088544272136066 2.5969635168641117e-14 2.366751406843826e-14
1.7368684342171086 2.8828749251870924e-14 2.1713275830286304e-14
1.7648824412206103 3.1516177280552545e-14 1.9471204154851208e-14
1.7928964482241119 3.400453775608832e-14 1.6957480444727865e-14
1.8209104552276136 3.626803311029525e-14 1.4190834725145293e-14
1.8489244622311154 3.828268462184017e-14 1.1192387299776396e-14
1.876938469234617 4.0026551332386255e-14 7.985468868971374e-15
1.9049524762381187 4.1479930995455054e-14 4.59542073417938e-15
1.932966483241621 4.262554125587435e-14 1.0493768913231322e-15
1.9609804902451224 4.344867943877582e-14 -2.623970021822285e-15
1.9889944972486242 4.393735952273516e-14 -6.394616815083119e-15
2.017008504252126 4.4082425079992994e-14 -1.023150963836966e-14
2.0450225112556275 4.3877637185821375e-14 -1.410281333932759e-14
2.0730365182591295 4.331973652697568e-14 -1.7976187865741754e-14
2.101050525262631 4.2408479173687224e-14 -2.1819069231946247e-14
2.129064532266133 4.1146645718641693e-14 -2.5598952530897645e-14
2.1570785392696346 3.95400237276487e-14 -2.928367445901297e-14
2.1850925462731365 3.759736368801722e-14 -3.284169282944559e-14
2.2131065532766385 3.5330308879796695e-14 -3.624236058104473e-14
2.24112056028014 3.2753299829826223e-14 -3.9456191844489257e-14
2.2691345672836416 2.988345423681482e-14 -4.2455117703442584e-14
2.2971485742871436 2.6740423475363518e-14 -4.5212729386312365e-14
2.325162581290645 2.3346226995940393e-14 -4.7704506742356385e-14
2.3531765882941467 1.9725066134435274e-14 -4.990802999332889e-14
2.3811905952976486 1.5903119027270878e-14 -5.1803172907306036e-14
2.40920460230115 1.1908318494494557e-14 -5.337227571328321e-14
2.437218609304652 7.770114902323566e-15 -5.4600296261993795e-14
2.465232616308154 3.5192261469454005e-15 -5.5474938138392447e-14
2.4932466233116557 -8.126229881737338e-16 -5.5986754642512825e-14
2.5212606303151572 -5.192969759597056e-15 -5.6129227775972247e-14
2.549274637318659 -9.588888265961876e-15 -5.5898821599207224e-14
2.5772886443221608 -1.3967267669036612e-14 -5.529500955746455e-14
2.6053026513256627 -1.829509135476078e-14 -5.432027560948765e-14
2.6333166583291643 -2.253971455461625e-14 -5.298008922955115e-14
2.661330665332666 -2.6669137969676672e-14 -5.128285458882179e-14
2.689344672336168 -3.0652274984036965e-14 -4.9239834453806876e-14
2.71735867933967 -3.445921012055653e-14 -4.686504956576085e-14
2.7453726863431713 -3.806144647928575e-14 -4.4175154483300357e-14
2.7733866933466733 -4.1432140006709135e-14 -4.118929107913227e-14
2.801400700350175 -4.4546318570973715e-14 -3.792892107884707e-14
2.829414707353677 -4.73810839633509e-14 -3.4417639213379626e-14
2.8574287143571784 -4.991579510789579e-14 -3.0680968725355984e-14
2.88544272136068 -5.2132230938082166e-14 -2.674614112161468e-14
2.913456728364182 -5.401473158941662e-14 -2.2641862198371442e-14
2.9414707353676834 -5.5550316758872106e-14 -1.839806648060949e-14
2.9694847423711854 -5.672878029352046e-14 -1.4045662312333756e-14
2.9974987493746874 -5.754276029000476e-14 -9.61626990851034e-15
3.025512756378189 -5.798778421141173e-14 -5.141954732225098e-15
3.0535267633816905 -5.806228875659152e-14 -6.549585914213043e-16
3.0815407703851925 -5.776761444689232e-14 3.81256914168043e-15
3.109554777388694 -5.710797512450614e-14 8.228837798723766e-15
3.1375687843921956 -5.6090402783031666e-14 1.25626768163721e-14
3.1655827913956975 -5.472466837237339e-14 1.6783789972609706e-14
3.193596798399199 -5.302317943467449e-14 2.0863000237845143e-14
3.221610805402701 -5.100085563366547e-14 2.4772483118047057e-14
3.249624812406203 -4.867498343473136e-14 2.848598648377416e-14
3.2776388194097046 -4.606505137538856e-14 3.1979035013494864e-14
3.3056528264132066 -4.319256753408365e-14 3.522911753069536e-14
3.333666833416708 -4.0080860957772586e-14 3.821585568048104e-14
3.3616808404202096 -3.6754868944261905e-14 4.0921152571069654e-14
3.3896948474237116 -3.324091219260645e-14 4.332932019702867e-14
3.417708854427213 -2.9566459932947164e-14 4.542718466248651e-14
3.445722861430715 -2.5759887225217227e-14 4.720416843193069e-14
3.473736868434217 -2.185022667349162e-14 4.8652349051607356e-14
3.5017508754377182 -1.7866916838985068e-14 4.9766494003917255e-14
3.5297648824412207 -1.3839549649554358e-14 5.054407157850015e-14
3.5577788894447218 -9.797619097009522e-15 5.0985237864835706e-14
3.5857928964482237 -5.770273485729473e-15 5.1092800190096584e-14
3.613806903451726 -1.786073447393638e-15 5.0872157540634214e-14
3.6418209104552273 2.1272421323913015e-15 5.0331218713866935e-14
3.6698349174587293 5.9429802184007495e-15 4.948029914755413e-14
3.697848924462231 9.63570581114687e-15 4.833199756364092e-14
3.7258629314657328 1.3181440388238466e-14 4.69010537423039e-14
3.753876938469234 1.655784491785298e-14 4.5204188906913134e-14
3.7818909454727363 1.9744385916491278e-14 4.3259930350844875e-14
3.8099049524762374 2.2722483192594992e-14 4.1088422071115866e-14
3.8379189594797394 2.5475638098728434e-14 3.8711223290457014e-14
3.865932966483242 2.7989541306068038e-14 3.6151096847714353e-14
3.893946973486743 3.025215931407947e-14 3.343178951550152e-14
3.921960980490245 3.225379911354855e-14 3.057780636319875e-14
3.9499749874937464 3.398715063061634e-14 2.7614181322226386e-14
3.9779889944972484 3.5447306791139914e-14 2.4566246128761342e-14
4.0060030015007495 3.663176125653825e-14 2.1459399816642117e-14
4.034017008504252 3.754038409229676e-14 1.831888091024192e-14
4.0620310155077535 3.81753758364892e-14 1.5169544423923636e-14
4.090045022511255 3.8541200636115426e-14 1.2035645711807443e-14
4.118059029514757 3.8644499311856675e-14 8.94063312971352e-15
4.146073036518259 3.8493983395231965e-14 5.9069513711324745e-15
4.1740870435217605 3.8100311354400006e-14 2.9558572219997044e-15
4.202101050525262 3.747594838439933e-14 1.0724934608257082e-16
4.2301150575287645 3.6635011283013024e-14 -2.6204864346997603e-15
4.258129064532266 3.559310006335116e-14 -5.210615061239487e-15
4.286143071535768 3.436711806751345e-14 -7.64817222768944e-15
4.314157078539269 3.297508244132206e-14 -9.920065491322487e-15
4.3421710855427715 3.143592690727443e-14 -1.2015155741409086e-14
4.370185092546273 2.976929883091577e-14 -1.39243184624914e-14
4.398199099549775 2.7995352614302437e-14 -1.5640484427395645e-14
4.426213106553277 2.613454146885811e-14 -1.715865965752833e-14
4.454227113556778 2.420740961862937e-14 -1.8475924690499457e-14
4.48224112056028 2.2234386963835435e-14 -1.9591413395952376e-14
4.510255127563782 2.023558819398642e-14 -2.0506271777731105e-14
4.538269134567283 1.8230618280194515e-14 -2.1223597392300827e-14
4.566283141570785 1.6238386198297704e-14 -2.1748360197825698e-14
4.594297148574287 1.4276928638892065e-14 -2.2087305823760392e-14
4.622311155577789 1.2363245348340453e-14 -2.2248842415571035e-14
4.65032516258129 1.0513147617444383e-14 -2.224291236172572e-14
4.678339169584793 8.741121293051605e-15 -2.208085034896335e-14
4.706353176588293 7.0602055338431375e-15 -2.1775229315784697e-14
4.734367183591796 5.48188836647107e-15 -2.133969598196682e-14
4.762381190595297 4.016019923737549e-15 -2.07887977227245e-14
4.790395197598799 2.670744064365447e-15 -2.013780262910251e-14
4.8184092046023 1.4524488859158986e-15 -1.94025146506718e-14
4.846423211605803 3.65736450403523e-16 -1.8599085752152858e-14
4.874437218609304 -5.865881519495225e-16 -1.7743827031947757e-14
4.902451225612806 -1.40350846971282e-15 -1.685302074764681e-14
4.930465232616308 -2.085769349532745e-15 -1.5942735171492494e-14
4.958479239619809 -2.6358310383268022e-15 -1.502864415783332e-14
4.986493246623311 -3.057805362707089e-15 -1.4125853245249917e-14
5.014507253626813 -3.3573747964841356e-15 -1.3248734038949346e-14
5.0425212606303145 -3.541695394775039e-15 -1.2410768525015806e-14
5.070535267633816 -3.619284730432203e-15 -1.1624404858163927e-14
5.098549274637318 -3.599896113737293e-15 -1.0900926039900673e-14
5.12656328164082 -3.4943805081738025e-15 -1.025033276574647e-14
5.1545772886443215 -3.3145376723694944e-15 -9.681241569782746e-15
5.182591295647824 -3.072958159871936e-15 -9.200799233822887e-15
5.2106053026513255 -2.782857893355174e-15 -8.814614258539725e-15
5.238619309654827 -2.4579070973712617e-15 -8.526706016644551e-15
5.266633316658329 -2.1120554232354285e-15 -8.33947202544758e-15
5.294647323661831 -1.7593551306697945e-15 -8.253673589667195e-15
5.322661330665332 -1.413784203133921e-15 -8.268439877028477e-15
5.350675337668834 -1.0890712673235432e-15 -8.381290300868273e-15
5.378689344672336 -7.985241621974393e-16 -8.588174897489852e-15
5.406703351675837 -5.5486395941907e-16 -8.88353220322316e-15
5.43471735867934 -3.700661757510658e-16 -9.260363958830877e-15
5.462731365682841 -2.5521083934506983e-16 -9.710325798795427e-15
5.490745372686343 -2.2034297688152812e-16 -1.0223832921777235e-14
5.518759379689844 -2.7434497806553195e-16 -1.0790179587728203e-14
5.546773386693347 -4.2482216924080112e-16 -1.1397671148230691e-14
5.574787393696848 -6.780027900725482e-16 -1.2033767190957264e-14
5.60280140070035 -1.0386534177792183e-15 -1.2685234267928696e-14
5.630815407703851 -1.5100107237480637e-15 -1.3338306581535767e-14
5.658829414707354 -2.0937302791517577e-15 -1.3978852923027134e-14
5.686843421710855 -2.7898529510573036e-15 -1.459254809607117e-14
5.714857428714357 -3.596789250235296e-15 -1.5165047013684836e-14
5.742871435717859 -4.511321808210578e-15 -1.5682159630674432e-14
5.77088544272136 -5.528625975871194e-15 -1.6130024865995878e-14
5.798899449724862 -6.642308350992999e-15 -1.649528168015601e-14
5.826913456728364 -7.844462859162106e-15 -1.676523550181724e-14
5.854927463731865 -9.125743833602336e-15 -1.6928018244822976e-14
5.882941470735367 -1.0475455366070756e-14 -1.6972740221445065e-14
5.910955477738869 -1.1881656035005375e-14 -1.6889632339118446e-14
5.938969484742371 -1.333127796009146e-14 -1.6670177065442906e-14
5.966983491745872 -1.481025898592068e-14 -1.630722675882936e-14
5.994997498749375 -1.630368666286178e-14 -1.5795108088731633e-14
6.0230115057528755 -1.7795952571971697e-14 -1.512971140866259e-14
6.051025512756378 -1.92709154339329e-14 -1.4308564095791554e-14
6.079039519759879 -2.0712071350639232e-14 -1.3330887031345675e-14
6.107053526763381 -2.2102729453073823e-14 -1.2197633564730592e-14
6.1350675337668825 -2.3426191171243125e-14 -1.0911510479572242e-14
6.163081540770385 -2.466593130172128e-14 -9.476980660041221e-15
6.1910955477738865 -2.5805779026205513e-14 -7.900247339092014e-15
6.219109554777388 -2.6830097030598014e-14 -6.189219994817599e-15
6.2471235617808905 -2.7723956888549935e-14 -4.3534621451956335e-15
6.275137568784391 -2.847330890598243e-14 -2.4041214732653436e-15
6.3031515757878935 -2.906514467351938e-14 -3.5384289245522595e-16
6.331165582791395 -2.9487650641538363e-14 1.78333466636326e-15
6.359179589794897 -2.9730351116994626e-14 3.992096800165325e-15
6.387193596798398 -2.978423918149288e-14 6.255986410241775e-15
6.415207603801901 -2.9641894145279685e-14 8.557549464065279e-15
6.443221610805402 -2.9297584280794855e-14 1.0878492364210034e-14
6.471235617808904 -2.874735372089194e-14 1.3199849426749246e-14
6.499249624812406 -2.7989092559445616e-14 1.5502158866831273e-14
6.527263631815908 -2.7022589354321153e-14 1.7765645599941916e-14
6.555277638819409 -2.5849565403015172e-14 1.9970409094566608e-14
6.583291645822911 -2.447369033803119e-14 2.2096614456297373e-14
6.611305652826413 -2.29005787705153e-14 2.4124684885417166e-14
6.639319659829914 -2.1137767895087902e-14 2.6035493630033947e-14
6.667333666833416 -1.919467615437322e-14 2.7810553555117906e-14
6.695347673836919 -1.708254324665464e-14 2.943220246434881e-14
6.723361680840419 -1.4814351942581924e-14 3.0883782346352464e-14
6.751375687843922 -1.2404732355146495e-14 3.214981076937737e-14
6.779389694847423 -9.869849479511732e-15 3.3216142718227003e-14
6.807403701850925 -7.227274984048675e-15 3.4070121253657704e-14
6.835417708854426 -4.495844389510346e-15 3.470071547666179e-14
6.863431715857929 -1.6955009181449374e-15 3.5098644397087703e-14
6.89144572286143 1.1528725726710204e-15 3.525648543678997e-14
6.919459729864932 4.0276320383256884e-15 3.5168766440708307e-14
6.947473736868434 6.906559437594656e-15 3.4832040223557236e-14
6.975487743871936 9.767056937932893e-15 3.4244940843703975e-14
7.0035017508754365 1.2586346334534315e-14 3.3408220967742864e-14
7.03151575787894 1.5341671826557068e-14 3.232476986759366e-14
7.059529764882441 1.8010504255901954e-14 3.099961177495725e-14
7.087543771885942 2.057074489397103e-14 2.9439884503884494e-14
7.1155577788894435 2.3000926860136177e-14 2.7654798439299017e-14
7.143571785892947 2.5280412272231533e-14 2.565557617574364e-14
7.1715857928964475 2.7389583264101294e-14 2.345537327462613e-14
7.199599799899949 2.931002505775997e-14 2.1069180788053804e-14
7.227613806903452 3.102469934756045e-14 1.8513710371256852e-14
7.255627813906953 3.2518106340259415e-14 1.5807262971926723e-14
7.2836418209104545 3.3776433897193956e-14 1.296958224197237e-14
7.311655827913956 3.4787692341973066e-14 1.0021693963698848e-14
7.3396698349174585 3.554183362802049e-14 6.98573291685822e-15
7.36768384192096 3.6030853703754113e-14 3.8847587341185874e-15
7.395697848924462 3.62488770677669e-14 7.425623990858849e-16
7.423711855927962 3.619222267063495e-14 -2.4165348678994793e-15
7.4517258629314655 3.585945049234727e-14 -5.5678885162895266e-15
7.479739869934967 3.525138830320392e-14 -8.686741486670472e-15
7.507753876938468 3.437113829964783e-14 -1.174843702946566e-14
7.535767883941971 3.322406349316044e-14 -1.4728631581601584e-14
7.563781890945473 3.18177539182746e-14 -1.760350575803752e-14
7.591795897948973 3.016197291316671e-14 -2.034997152961077e-14
7.619809904952475 2.8268583911406365e-14 -2.2945873691305365e-14
7.647823911955978 2.6151458364514708e-14 -2.5370183775535762e-14
7.675837918959479 2.3826365590300307e-14 -2.760318463280979e-14
7.70385192596298 2.1310845509843307e-14 -2.962664398660702e-14
7.731865932966484 1.8624065394911236e-14 -3.1423975369616035e-14
7.759879939969984 1.578666189600359e-14 -3.298038496371568e-14
7.787893946973486 1.2820569757748054e-14 -3.4283002995119585e-14
7.815907953976987 9.748838751735258e-15 -3.5320998477728117e-14
7.84392196098049 6.5954404659032e-15 -3.6085676250589735e-14
7.871935967983991 3.3850666832851337e-15 -3.657055541802338e-14
7.899949974987493 1.4292116040320673e-16 -3.6771428471839997e-14
7.927963981990994 -3.1054933238458922e-15 -3.66864005526148e-14
7.955977988994497 -6.334590734901046e-15 -3.631590848941961e-14
7.983991995997998 -9.518918425722584e-15 -3.566271944310367e-14
8.012006003001499 -1.2633372710212165e-14 -3.4731909165353776e-14
8.040020010005003 -1.5653411431629365e-14 -3.353082007261114e-14
8.068034017008504 -1.8555261619774695e-14 -3.206899951871306e-14
8.096048024012005 -2.131612037741882e-14 -3.035811883112642e-14
8.124062031015507 -2.3914347200398617e-14 -2.8411873851142587e-14
8.15207603801901 -2.6329646016353772e-14 -2.6245867886779923e-14
8.18009004502251 -2.8543235323450896e-14 -2.387747814680155e-14
8.208104052026012 -3.0538004921703556e-14 -2.1325706873730057e-14
8.236118059029515 -3.2298657854569984e-14 -1.861101853163437e-14
8.264132066033016 -3.381183631619732e-14 -1.5755164529494752e-14
8.292146073036518 -3.506623042866122e-14 -1.2780997071979286e-14
8.320160080040019 -3.605266895239022e-14 -9.712273825476447e-15
8.348174087043521 -3.676419116016067e-14 -6.5734551673343374e-15
8.376188094047023 -3.719609927900509e-14 -3.3894958497614476e-15
8.404202101050524 -3.7345991083437006e-14 -1.8563295617679832e-16
8.432216108054025 -3.7213772405869733e-14 3.0128279434380358e-15
8.460230115057529 -3.680164951426614e-14 6.180726520652502e-15
8.48824412206103 -3.611410149116397e-14 9.293259389506152e-15
8.516258129064532 -3.515783293054025e-14 1.2326187894185271e-14
8.544272136068034 -3.3941707447815517e-14 1.525604013946034e-14
8.572286143071535 -3.2476662671943034e-14 1.8060305478971464e-14
8.600300150075036 -3.077560755541052e-14 2.0717619751917314e-14
8.628314157078538 -2.885330299650233e-14 2.3207939649821812e-14
8.65632816408204 -2.672622691689374e-14 2.5512704700908366e-14
