freq real imag
0.0 1.354472090042691e-14 -0.08930098615768103
0.056028014007003496 -0.006159411811611948 -0.03866470952505602
0.11205602801400699 -0.007205184612875559 0.012321660848444438
0.1680840420210105 -0.0031290997967963197 0.06314462196389967
0.22411205602801398 0.006025635757238135 0.11329253184445243
0.2801400700350175 0.02016484298223009 0.16226074095124815
0.336168084042021 0.039144334100294165 0.20955665180174368
0.39219609804902444 0.06277137648989195 0.2547046562502687
0.44822411205602797 0.0908066421675916 0.2972509011249704
0.5042521260630315 0.12296662326809316 0.33676783464013316
0.560280140070035 0.15892648926237019 0.3728584882010961
0.6163081540770385 0.19832335725243666 0.40516045086863256
0.672336168084042 0.24075994256610544 0.43334949682432883
0.7283641820910455 0.2858085530869988 0.45714282964756237
0.7843921960980489 0.3330153873316952 0.4763019110435857
0.8404202101050524 0.3819050932611567 0.4906348458128979
0.8964482241120559 0.4319855422174895 0.4999982992832253
0.9524762381190593 0.4827527702355345 0.5042989280929546
1.008504252126063 0.5336960373128807 0.5034943100724136
1.0645322661330665 0.5843029540482765 0.4975933639685639
1.12056028014007 0.6340646243887129 0.48665625484989194
1.1765882941470733 0.6824807530662912 0.47079378616085077
1.232616308154077 0.729064666659024 0.45016628451811525
1.2886443221610804 0.7733481980713712 0.42498198840323764
1.344672336168084 0.814886385592114 0.39549495685772573
1.4007003501750874 0.8532619395355802 0.3620025190777838
1.456728364182091 0.8880894317888892 0.32484229038943446
1.5127563781890945 0.9190191663498951 0.28438878441476007
1.5687843921960978 0.9457406921203172 0.24104965527356037
1.6248124062031015 0.9679859227847479 0.1952616073616345
1.6808404202101048 0.9855318325233079 0.1474860135703329
1.7368684342171086 0.9982027005348565 0.09820428572894
1.7928964482241119 1.0058718818468082 0.04791304353262632
1.8489244622311154 1.008463086612158 -0.0028808697604560674
1.9049524762381187 1.0059511549972109 -0.05366547503922309
1.9609804902451224 0.9983623197962145 -0.10392879758903925
2.017008504252126 0.9857739540213616 -0.15316400847512357
2.0730365182591295 0.9683138058578896 -0.20087451562923678
2.129064532266133 0.9461587284929245 -0.24657895369603347
2.1850925462731365 0.919532917372486 -0.28981602269029283
2.24112056028014 0.8887056723634363 -0.3301491270092868
2.2971485742871436 0.853988707047177 -0.3671707683209773
2.3531765882941467 0.8157330319021152 -0.4005066482890768
2.40920460230115 0.7743254423973831 -0.429819439976332
2.465232616308154 0.7301846469782566 -0.4548121900589863
2.5212606303151572 0.6837570735348484 -0.4752313176559834
2.5772886443221608 0.6355123961737531 -0.4908691795893857
2.6333166583291643 0.5859388269251092 -0.5015661762083488
2.689344672336168 0.5355382193869247 -0.5072123764846977
2.7453726863431713 0.48482103321052017 -0.5077486458784393
2.801400700350175 0.43430120974662234 -0.503167265428971
2.8574287143571784 0.38449101008633824 -0.49351203560286594
2.913456728364182 0.3358958671359453 -0.4788778635717196
2.9694847423711854 0.28900930325444474 -0.45940983775233735
3.025512756378189 0.244307964359189 -0.4353017985653539
3.0815407703851925 0.20224682027332352 -0.40679441940607164
3.1375687843921956 0.1632545794603788 -0.374172816722818
3.193596798399199 0.1277293641816979 -0.3377637128145121
3.249624812406203 0.09603468954253935 -0.29793217944337586
3.3056528264132066 0.0684957868874877 -0.25507799456606295
3.3616808404202096 0.045396308595135215 -0.209631648374749
3.417708854427213 0.026975447539335118 -0.16205003837018261
3.473736868434217 0.013425500367084564 -0.11281189632564925
3.5297648824412207 0.004889899331941505 -0.062412992713124726
3.5857928964482237 0.0014617327605505048 -0.011361166422735075
3.6418209104552273 0.0031827693644044253 0.03982877060827711
3.697848924462231 0.010042996587776853 0.09064020294925568
3.753876938469234 0.021980678055582903 0.1405599037194114
3.8099049524762374 0.038882930002666516 0.18908319715715685
3.865932966483242 0.06058681138032207 0.2357190399994353
3.921960980490245 0.08688091719816526 0.2799949707183914
3.9779889944972484 0.11750745962108478 0.3214618769349685
4.034017008504252 0.15216481645216906 0.3596985330978898
4.090045022511255 0.19051052194184448 0.39431586276497155
4.146073036518259 0.23216467041813926 0.42496088252969344
4.202101050525262 0.27671369907727417 0.4513202877733252
4.258129064532266 0.323714512449353 0.4731236439604431
4.314157078539269 0.37269890759942736 0.4901461510990818
4.370185092546273 0.42317825607407533 0.502210953217094
4.426213106553277 0.474648395988958 0.5091909692222492
4.48224112056028 0.5265946854999779 0.5110102262702252
4.538269134567283 0.578497167231627 0.5076446817150402
4.594297148574287 0.6298357920680856 0.4991225248115536
4.65032516258129 0.6800956500578064 0.48552395452887387
4.706353176588293 0.7287721560478604 0.46698043506526554
4.762381190595297 0.7753761380521518 0.44367343587757757
4.8184092046023 0.8194387772645784 0.4158326681991563
4.874437218609304 0.8605163500459323 0.38373383506822567
4.930465232616308 0.8981947241282744 0.3476959167736301
4.986493246623311 0.9320935636744597 0.3080780182974606
5.0425212606303145 0.9618702006798853 0.26527580974799425
5.098549274637318 0.9872231334811487 0.219717594886928
5.1545772886443215 1.0078951168095378 0.17186004662109666
5.2106053026513255 1.0236758118605114 0.12218365171248413
5.266633316658329 1.0344039692037788 0.07118790992728669
5.322661330665332 1.039969121989378 0.019386335364923735
5.378689344672336 1.0403127717675495 -0.0326986902445153
5.43471735867934 1.035429054286268 -0.08454116093204833
5.490745372686343 1.0253648778099085 -0.13561673418426107
5.546773386693347 1.0102195317645253 -0.18540801003096516
5.60280140070035 0.9901437688070526 -0.23340974862035882
5.658829414707354 0.965338368685163 -0.27913397390784295
5.714857428714357 0.9360521974486918 -0.32211491213957144
5.77088544272136 0.9025797806408359 -0.361913715380651
5.826913456728364 0.8652584139870243 -0.39812292240531677
5.882941470735367 0.8244648397625456 -0.43037061181326086
5.938969484742371 0.7806115214097928 -0.4583242052373725
5.994997498749375 0.7341425530483184 -0.48169388193490975
6.051025512756378 0.6855292442346125 -0.5002355698727792
6.107053526763381 0.6352654236460594 -0.5137534825909763
6.163081540770385 0.5838625082512495 -0.5221021756155337
6.219109554777388 0.5318443869570386 -0.5251881009490182
6.275137568784391 0.47974216966670796 -0.5229706431464232
6.331165582791395 0.4280888541228895 -0.5154626256373873
6.387193596798398 0.37741396382825576 -0.5027302812316914
6.443221610805402 0.32823821072662407 -0.48489268609117364
6.499249624812406 0.2810682361815926 -0.46212066181469
6.555277638819409 0.23639148311011246 -0.434635155610145
6.611305652826413 0.194671250920061 -0.4027051137658476
6.667333666833416 0.15634198317458314 -0.36664486873000113
6.723361680840419 0.1218048356786654 -0.3268110650114413
6.779389694847423 0.09142356997530166 -0.28359915377695477
6.835417708854426 0.06552081407657928 -0.23743949039443657
6.89144572286143 0.044374728669014485 -0.18879307321208072
6.947473736868434 0.028216113057662806 -0.13814696553120343
7.0035017508754365 0.017225980788441397 -0.08600944598675697
7.059529764882441 0.011533630255342708 -0.032904935361771526
7.1155577788894435 0.011215230703978896 0.0206312497988711
7.1715857928964475 0.01629293893336914 0.07405826456833353
7.227613806903452 0.026734556724814063 0.1268351704794895
7.2836418209104545 0.042453733641631075 0.17842638350284265
7.3396698349174585 0.06331071440041569 0.22830708058163696
7.395697848924462 0.08911362456684202 0.27596851043564624
7.4517258629314655 0.11962028293163829 0.32092315517781783
7.507753876938468 0.1545405236283386 0.36270969065589087
7.563781890945473 0.19353900591755213 0.40089769532194086
7.619809904952475 0.23623848463340202 0.4350920598287046
7.675837918959479 0.28222350961682485 0.46493705243013417
7.731865932966484 0.33104451809383095 0.490119998597207
7.787893946973486 0.3822222799398649 0.5103745370163951
7.84392196098049 0.43525265214368714 0.5254834182814809
7.899949974987493 0.4896115955837108 0.5352808170785396
7.955977988994497 0.5447604044890355 0.5396541334558649
8.012006003001499 0.6001510967047514 0.5385452638178365
8.068034017008504 0.6552319111403753 0.5319513275349566
8.124062031015507 0.7094528575700707 0.5199248404696615
8.18009004502251 0.7622712632867908 0.5025733322255976
8.236118059029515 0.8131572609979679 0.4800584094823701
8.292146073036518 0.8615991627902877 0.4525942733230155
8.348174087043521 0.9071086659824233 0.42044570394266345
8.404202101050524 0.9492258382191918 0.38392553148904207
8.460230115057529 0.9875238312243598 0.3433916169752076
8.516258129064532 1.0216132752032228 0.2992433721698792
8.572286143071535 1.0511463089461504 0.25191785206109685
8.628314157078538 1.0758202042007885 0.20188545785725676
8.684342171085543 1.0953805468206 0.14964529249130365
8.740370185092546 1.1096239415222353 0.09572021418846144
8.79639819909955 1.1184002117521903 0.040651636808217484
8.852426213106554 1.1216140711289522 -0.015005871655130343
8.908454227113555 1.1192262481414426 -0.07069013886019349
8.96448224112056 1.1112540511973872 -0.12583703100031873
9.020510255127563 1.0977713666724822 -0.17988613248976493
9.076538269134566 1.0789080882584328 -0.23228640562732616
9.13256628314157 1.0548489815889395 -0.28250177343803934
9.188594297148574 1.0258319937813039 -0.3300165694882109
9.244622311155577 0.9921460231108997 -0.37434079962523614
9.30065032516258 0.9541281694808819 -0.4150151623031333
9.356678339169585 0.912160491605385 -0.4516157764007005
9.412706353176587 0.8666663018382709 -0.4837585682021228
9.468734367183592 0.8181060343007672 -0.511103272463314
9.524762381190595 0.7669727263420283 -0.5333570062002299
9.580790395197598 0.713787157362126 -0.5502773779731501
9.6368184092046 0.6590926925965841 -0.5616750999628141
9.692846423211606 0.6034498825678816 -0.567416074997053
9.748874437218609 0.5474308715206295 -0.5674229358430483
9.804902451225612 0.49161367024524727 -0.5616760194797166
9.860930465232617 0.43657635023782076 -0.5502137646546561
9.916958479239618 0.3828912171241238 -0.5331325267553059
9.972986493246623 0.33111902168189467 -0.5105858098280132
10.029014507253626 0.28180326662139854 -0.48278292140438994
10.085042521260629 0.23546466653010587 -0.44998706158341917
10.141070535267632 0.1925958170580008 -0.41251286351294036
10.197098549274637 0.15365612752739266 -0.37072340795825665
10.25312656328164 0.1190670687115355 -0.325026739983197
10.309154577288643 0.08920778456260958 -0.27587192084590495
10.365182591295648 0.06441111320889792 -0.22374465297716561
10.421210605302651 0.04496005861634922 -0.16916252031399726
10.477238619309654 0.03108474995821875 -0.11266989026117624
10.533266633316657 0.022959920999792383 -0.054832527106546625
10.589294647323662 0.020702936729461663 0.0037680302140660205
10.645322661330663 0.02437238910119155 0.06254027055243233
10.701350675337668 0.033967278149296454 0.1208886357228196
10.757378689344671 0.049426788949493594 0.17821950950875093
10.813406703351674 0.07063066898653403 0.2339472107294626
10.86943471735868 0.09740020450732945 0.2874999303210472
10.925462731365682 0.12949978844798804 0.3383255527120325
10.981490745372685 0.1666390665836095 0.3858973026935602
11.037518759379688 0.2084756427194434 0.4297191604945846
11.093546773386693 0.2546183180803635 0.46933098985902477
11.149574787393696 0.3046308346186569 0.5043133265665608
11.2056028014007 0.3580360868032417 0.5342917780176064
11.261630815407702 0.41432076162851106 0.5589409881862774
11.317658829414707 0.47294036213789803 0.5779881263987091
11.37368684342171 0.5333245657407196 0.5912158629778612
11.429714857428714 0.5948828650534668 0.5984647997671617
11.485742871435718 0.6570104359548159 0.5996353288550045
11.54177088544272 0.7190941750397799 0.5946888984200437
11.597798899449725 0.7805188467200153 0.5836486704483519
11.653826913456728 0.8406732788649801 0.5665995610808928
11.70985492746373 0.8989565451296175 0.5436876604750944
11.765882941470734 0.9547840719770953 0.5151190352465962
11.821910955477739 1.0075936088848703 0.48115792273583624
11.877938969484742 1.0568510013162264 0.4421243324575568
11.933966983491745 1.1020557077395055 0.39839107607857005
11.98999499749875 1.1427460042692064 0.3503802530704253
12.046023011505751 1.1785038233665581 0.29855922474040975
12.102051025512756 1.2089591764467942 0.2434361146005004
12.158079039519759 1.233794114163871 0.1855548779361874
12.214107053526762 1.2527461825449917 0.12548998793488686
12.270135067533765 1.2656113379849365 0.06384078978090901
12.32616308154077 1.2722462893379904 0.0012255776784600991
12.382191095547773 1.2725702409133648 -0.06172454721175913
12.438219109554776 1.2665660160343206 -0.12437197747536533
12.494247123561781 1.254280546905412 -0.1860789964677541
12.550275137568782 1.235824722786893 -0.24621420807853034
12.606303151575787 1.2113725948391978 -0.3041589350227612
12.66233116558279 1.1811599424109858 -0.3593135214458316
12.718359179589793 1.1454822119381918 -0.41110347626798727
12.774387193596796 1.1046918459355035 -0.4589853949693189
12.830415207603801 1.0591950257324887 -0.5024525994158909
12.886443221610804 1.00944785757278 -0.5410404378376468
12.942471235617807 0.9559520373958739 -0.5743311901662392
12.998499249624812 0.899250034999555 -0.6019585275985162
13.054527263631815 0.8399198432820577 -0.623611479435474
13.110555277638818 0.778569342835032 -0.6390378649180208
13.166583291645821 0.7158303362542328 -0.6480471528965006
13.222611305652826 0.6523523101114193 -0.6505127176815362
13.278639319659828 0.5887959855502272 -0.6463734652774007
13.334667333666832 0.5258267208981718 -0.6356348103391101
13.390695347673837 0.46410783149937096 -0.618368990561785
13.446723361680839 0.4042938931468858 -0.5947147117434948
13.502751375687843 0.34702409601502004 -0.5648761233969567
13.558779389694847 0.2929157158516927 -0.5291211314562223
13.61480740370185 0.24255776838741816 -0.4877790612658015
13.670835417708853 0.19650491145467514 -0.44123769058578
13.726863431715858 0.15527165720047081 -0.38993967873218227
13.78289144572286 0.1193269540336358 -0.33437842413303354
13.838919459729864 0.0890891945997806 -0.2750933884552401
13.894947473736869 0.0649217021515664 -0.21266493098587003
13.950975487743872 0.04712874321501559 -0.14770870207703712
14.007003501750873 0.03595210948574579 -0.08086964913382544
14.06303151575788 0.031568306468113705 -0.012815692790675737
14.119059529764883 0.03408638054691859 0.055768865460854244
14.175087543771884 0.04354641001029813 0.1241901398988704
14.231115557778887 0.0599186790831735 0.1917515947480728
14.287143571785894 0.08310354734513747 0.2577610474389422
14.343171585792895 0.11293202005967229 0.3215376713867747
14.399199599799898 0.14916701799991972 0.3824189283164779
14.455227613806905 0.19150533838766148 0.43976736043843423
14.511255627813906 0.23958029163566708 0.49297717375265737
14.567283641820909 0.29296499176738955 0.5414805454166303
14.623311655827912 0.35117627175026245 0.5847535904452259
14.679339669834917 0.4136791885860748 0.6223219259988028
14.73536768384192 0.47989207691848235 0.653765775133251
14.791395697848923 0.5491921042057776 0.6787245561010914
14.847423711855924 0.6209212752244457 0.6969009080672162
14.903451725862931 0.6943928288716325 0.7080641093940272
14.959479739869934 0.7688979659711586 0.7120528504079445
15.015507753876935 0.8437128431048595 0.708777328730021
15.071535767883942 0.9181057644273198 0.698220641778379
15.127563781890945 0.991344501012769 0.6804394578678815
15.183591795897946 1.0627036655546467 0.6555639543772253
15.23961980990495 1.1314720692130131 0.6237970186575609
15.295647823911956 1.1969599870970535 0.5854127146499333
15.351675837918958 1.2585062592866199 0.5407540254899075
15.40770385192596 1.3154851554388538 0.4902298896349859
15.463731865932967 1.3673129328864713 0.4343115551819159
15.519759879939969 1.4134540206999928 0.37352828397608107
15.575787893946972 1.4534267654359743 0.30846244378354204
15.631815907953975 1.4868086781996148 0.23974403313210135
15.68784392196098 1.5132411271792754 0.16804468936473582
15.743871935967983 1.5324334249211067 0.09407123592758992
15.799899949974986 1.5441662652590082 0.018558829877072802
15.855927963981989 1.5482944709450304 -0.0577362250141521
15.911955977988994 1.5447490195825395 -0.1340439303930332
15.967983991995997 1.5335383223864754 -0.2095882384205876
16.024012006002998 1.514748737516481 -0.283594815109361
16.080040020010006 1.4885443071812912 -0.3552988454754613
16.136068034017008 1.4551657153238873 -0.42395280310566397
16.19209604802401 1.4149284703940608 -0.4888341065249293
16.248124062031014 1.3682203254223078 -0.5492525852980897
16.30415207603802 1.3154979552517168 -0.6045576801110027
16.36018009004502 1.2572829182863972 -0.6541453031441071
16.416208104052025 1.1941569374023575 -0.6974642878592757
16.47223611805903 1.1267565416660796 -0.7340223608478824
16.52826413206603 1.055767117147042 -0.7633915726033715
16.584292146073036 0.9819164213250462 -0.7852131289502313
16.640320160080037 0.905967621318242 -0.7992015703389725
16.696348174087042 0.828711921332935 -0.8051482522550656
16.752376188094047 0.7509608493072447 -0.8029240865332247
16.80840420210105 0.6735382766384824 -0.7924815103570503
16.86443221610805 0.5972722481052792 -0.7738556570922122
16.920460230115058 0.5229867015838111 -0.7471647107802388
16.97648824412206 0.4514931588827824 -0.7126094340366027
17.032516258129064 0.3835824699617587 -0.6704718671756126
17.08854427213607 0.3200166929373271 -0.621113204547725
17.14457228614307 0.2615211916129887 -0.5649708622436067
17.20060030015007 0.2087770307935687 -0.5025547594133251
17.256628314157076 0.16241374736982386 -0.4344428433891374
17.31265632816408 0.12300257210162024 -0.36127589650815106
17.368684342171086 0.09105017321093944 -0.28375166992879075
17.424712356178087 0.06699298835122214 -0.20261839674891557
17.480740370185092 0.051192206285934794 -0.11866774329163743
17.536768384192094 0.043929453731293755 -0.03272726346022492
17.5927963981991 0.045403236349662035 0.05434757348729169
17.6488244122061 0.05572617587798345 0.14168170658713064
17.704852426213108 0.07492307790483077 0.22838907897573046
17.76088044022011 0.10292985693839352 0.31358142321623395
17.81690845422711 0.13959333720999523 0.39637715091998715
17.872936468234116 0.18467193921016556 0.4759102596587015
17.92896448224112 0.23783725333703576 0.5513391692198744
17.984992496248122 0.2986764933325381 0.6218553991656621
18.041020510255127 0.36669581347416336 0.6866920004219894
18.09704852426213 0.4413244648629464 0.745131655249844
18.153076538269133 0.5219197576876409 0.7965143624254065
18.209104552276138 0.6077727881321942 0.8402446277640834
18.26513256628314 0.6981148807124813 0.8757980842382901
18.321160580290144 0.7921246893559886 0.902727470830058
18.37718859429715 0.8889358935522561 0.9206679048830471
18.43321660830415 0.9876454194731296 0.9293413890286828
18.489244622311155 1.0873221101572994 0.9285605007011947
18.54527263631816 1.1870157637356364 0.9182312197651665
18.60130065032516 1.2857664542963538 0.8983548577890249
18.657328664332162 1.382614046402321 0.8690290609352987
18.71335667833917 1.4766078115173693 0.8304478672264974
18.769384692346172 1.566816052708244 0.7829008080009188
18.825412706353173 1.652335642990645 0.7267710526123288
18.881440720360178 1.73230138259745 0.6625326047618346
18.937468734367183 1.8058950812755254 0.5907465681919671
18.993496748374184 1.8723542734630008 0.5120565087309811
19.04952476238119 1.9309804768544638 0.4271829487598269
19.105552776388194 1.9811469084081264 0.33691703899691694
19.161580790395195 2.022305576262564 0.2421134609683493
19.2176088044022 2.053993671274772 0.14368262156993805
19.2736368184092 2.0758391879241227 0.042582208650596365
19.329664832416206 2.0875657110978127 -0.06019181652287542
19.38569284642321 2.0889963127233657 -0.16361470779286946
